Voltage(V)	Current(A)	J(mA/cm2)	PE(lm/W)	EQE(%)	L(cd/m2)
-9.99976E-1	-5.77308E-8	-3.60817E-4	2.01228E+1	-3.34630E+2	2.31109E-2
-7.99961E-1	2.40542E-9	1.50339E-5	5.62271E+3	-5.13725E+3	2.15246E-1
-5.99935E-1	2.29302E-8	1.43314E-4	-1.45480E+3	-8.41776E+2	-3.98148E-1
-3.99924E-1	3.08491E-8	1.92807E-4	4.14348E+2	-1.23141E+3	1.01699E-1
-1.99972E-1	3.16134E-8	1.97584E-4	8.14646E+2	-1.74327E+2	1.02456E-1
1.04785E-4	3.61568E-8	2.25980E-4	-3.58393E+6	-1.30469E+2	-2.70133E-1
2.00094E-1	3.77975E-8	2.36234E-4	-1.32934E+3	1.33542E+2	-2.00015E-1
4.00047E-1	4.45907E-8	2.78692E-4	6.16234E+2	-3.62846E+2	2.18691E-1
6.00033E-1	4.59236E-8	2.87023E-4	2.51603E+2	2.43673E+1	1.37930E-1
8.00054E-1	6.48713E-8	4.05446E-4	-9.52967E+1	-2.95050E+2	-9.83966E-2
1.00005E+0	8.59393E-8	5.37121E-4	-1.93701E+2	-1.04979E+2	-3.31188E-1
1.20003E+0	8.84453E-8	5.52783E-4	1.06135E+2	-2.92088E+2	2.24107E-1
1.40004E+0	1.49626E-7	9.35162E-4	-1.50215E+2	-2.15270E+2	-6.26025E-1
1.60004E+0	2.29835E-7	1.43647E-3	-4.22780E+1	6.78347E+0	-3.09308E-1
1.80002E+0	3.74133E-7	2.33833E-3	8.54611E+0	-9.05300E+1	1.14499E-1
2.00001E+0	7.21214E-7	4.50759E-3	-8.03417E+0	-2.80366E+1	-2.30551E-1
2.20034E+0	1.50822E-6	9.42638E-3	2.23701E+0	-5.01386E+0	1.47690E-1
2.40033E+0	3.14720E-6	1.96700E-2	-4.06336E+0	-5.67189E+0	-6.10676E-1
2.60031E+0	5.89600E-6	3.68500E-2	6.05508E-1	-3.46081E+0	1.84685E-1
2.80014E+0	1.07896E-5	6.74350E-2	4.51767E-1	-3.04734E+0	2.71538E-1
3.00025E+0	1.96676E-5	1.22923E-1	1.82449E-1	-1.37353E+0	2.14181E-1
3.20024E+0	3.41143E-5	2.13214E-1	2.78738E-1	-3.21378E-1	6.05404E-1
3.40016E+0	5.64428E-5	3.52768E-1	2.89365E-1	-2.54876E-1	1.10480E+0
3.60021E+0	8.97270E-5	5.60794E-1	5.55942E-1	1.12654E-1	3.57282E+0
3.80027E+0	1.34791E-4	8.42444E-1	5.84742E-1	1.70936E-1	5.95895E+0
4.00015E+0	1.99290E-4	1.24556E+0	6.52688E-1	2.36297E-1	1.03514E+1
4.20016E+0	2.78683E-4	1.74177E+0	7.25443E-1	2.74749E-1	1.68931E+1
4.40014E+0	3.78226E-4	2.36391E+0	7.21381E-1	2.67168E-1	2.38843E+1
4.60011E+0	5.12673E-4	3.20421E+0	7.42132E-1	3.29251E-1	3.48193E+1
4.80051E+0	6.72031E-4	4.20019E+0	7.40166E-1	3.83566E-1	4.75046E+1
5.00046E+0	8.63329E-4	5.39581E+0	7.29357E-1	3.70193E-1	6.26407E+1
5.20044E+0	1.08996E-3	6.81225E+0	7.09134E-1	3.98996E-1	7.99667E+1
5.40042E+0	1.35174E-3	8.44838E+0	6.85697E-1	3.87561E-1	9.95825E+1
5.60043E+0	1.64935E-3	1.03084E+1	6.57968E-1	3.96672E-1	1.20912E+2
5.80050E+0	1.96344E-3	1.22715E+1	6.39437E-1	3.98345E-1	1.44881E+2
6.00044E+0	2.29790E-3	1.43619E+1	6.24652E-1	4.01385E-1	1.71349E+2
6.20054E+0	2.66836E-3	1.66773E+1	6.00193E-1	3.98336E-1	1.97558E+2
6.40048E+0	3.08020E-3	1.92512E+1	5.81619E-1	4.00474E-1	2.28118E+2
6.60049E+0	3.54543E-3	2.21589E+1	5.53469E-1	3.94334E-1	2.57673E+2
6.80042E+0	4.03904E-3	2.52440E+1	5.36084E-1	3.91941E-1	2.92939E+2
7.00036E+0	4.58805E-3	2.86753E+1	5.09185E-1	3.83832E-1	3.25352E+2
7.20037E+0	5.18941E-3	3.24338E+1	4.90552E-1	3.78289E-1	3.64660E+2
7.40036E+0	5.83421E-3	3.64638E+1	4.66823E-1	3.68916E-1	4.00975E+2
7.60036E+0	6.52635E-3	4.07897E+1	4.50284E-1	3.65937E-1	4.44345E+2
7.80038E+0	7.28111E-3	4.55069E+1	4.28955E-1	3.58475E-1	4.84680E+2
8.00033E+0	8.08564E-3	5.05352E+1	4.11967E-1	3.55327E-1	5.30169E+2
8.20034E+0	8.95495E-3	5.59684E+1	3.92346E-1	3.46059E-1	5.73184E+2
8.40038E+0	9.89324E-3	6.18327E+1	3.76489E-1	3.39626E-1	6.22472E+2
8.60039E+0	1.08830E-2	6.80188E+1	3.60361E-1	3.33927E-1	6.71020E+2
8.80040E+0	1.19275E-2	7.45469E+1	3.43698E-1	3.26229E-1	7.17727E+2
9.00039E+0	1.30344E-2	8.14650E+1	3.29844E-1	3.21634E-1	7.69823E+2
9.20032E+0	1.42197E-2	8.88731E+1	3.14121E-1	3.11803E-1	8.17562E+2
9.40034E+0	1.54517E-2	9.65731E+1	3.01753E-1	3.06457E-1	8.71969E+2
9.60066E+0	1.67637E-2	1.04773E+2	2.87847E-1	2.99079E-1	9.21645E+2
9.80060E+0	1.81336E-2	1.13335E+2	2.76283E-1	2.92919E-1	9.76834E+2
1.00006E+1	1.95962E-2	1.22476E+2	2.63877E-1	2.85082E-1	1.02880E+3
1.00215E+1	2.00008E-2	1.25005E+2	2.58077E-1	2.79085E-1	1.02911E+3
