Voltage(V)	Current(A)	J(mA/cm2)	PE(lm/W)	EQE(%)	L(cd/m2)
-9.99961E-1	-2.77833E-6	-1.73646E-2	-1.98210E+0	4.28697E+0	-1.09552E-1
-7.99985E-1	-1.66666E-6	-1.04166E-2	-2.59447E+1	-5.21059E+0	-6.88189E-1
-5.99958E-1	-9.23204E-7	-5.77003E-3	1.09285E+1	9.41224E+0	1.20423E-1
-3.99954E-1	-4.30542E-7	-2.69089E-3	5.92455E+0	-2.22084E+1	2.02960E-2
-2.00009E-1	-1.38267E-7	-8.64169E-4	1.15995E+3	1.48472E+1	6.38173E-1
2.76089E-5	7.97093E-10	4.98183E-6	-3.55835E+8	5.11367E+3	-1.55789E-1
2.00017E-1	1.41783E-7	8.86144E-4	7.01182E+1	-1.94946E+2	3.95596E-2
3.99962E-1	4.28498E-7	2.67811E-3	-2.63405E+1	-4.81743E+1	-8.98094E-2
5.99960E-1	9.52610E-7	5.95381E-3	-7.59595E+1	-1.99723E+1	-8.63674E-1
7.99973E-1	1.77448E-6	1.10905E-2	3.05680E+0	-1.45091E+1	8.63263E-2
9.99977E-1	3.03551E-6	1.89719E-2	-6.38891E+0	-5.28132E+0	-3.85815E-1
1.19999E+0	4.69214E-6	2.93259E-2	-9.34913E-1	-3.24019E+0	-1.04725E-1
1.39999E+0	6.97087E-6	4.35679E-2	-1.40170E+0	-5.33290E+0	-2.72143E-1
1.59998E+0	9.95031E-6	6.21894E-2	-5.63498E-1	1.71266E+0	-1.78473E-1
1.79997E+0	1.36371E-5	8.52319E-2	-4.14797E-1	5.62293E-2	-2.02560E-1
1.99996E+0	1.81300E-5	1.13312E-1	2.42264E-1	-7.10590E-1	1.74759E-1
2.19989E+0	2.48100E-5	1.55063E-1	-3.63842E-1	-2.12736E-2	-3.95067E-1
2.39983E+0	3.33013E-5	2.08133E-1	1.05970E-1	-2.54309E-1	1.68483E-1
2.59983E+0	4.42262E-5	2.76414E-1	-1.13956E-2	-3.04398E-1	-2.60671E-2
2.79978E+0	7.13842E-5	4.46151E-1	1.03184E-1	-2.45025E-2	4.10269E-1
2.99980E+0	1.45821E-4	9.11381E-1	9.43873E-2	-3.17661E-3	8.21402E-1
3.19984E+0	1.84241E-4	1.15151E+0	6.59702E-2	-2.20480E-2	7.73736E-1
3.39975E+0	2.44072E-4	1.52545E+0	6.44364E-2	4.27791E-3	1.06372E+0
3.59971E+0	3.10643E-4	1.94152E+0	1.00066E-1	9.02899E-3	2.22611E+0
3.79970E+0	3.66131E-4	2.28832E+0	1.12634E-1	2.12588E-2	3.11734E+0
3.99968E+0	4.21940E-4	2.63712E+0	1.68436E-1	5.04127E-2	5.65511E+0
4.19964E+0	4.87715E-4	3.04822E+0	1.98314E-1	5.00314E-2	8.08092E+0
4.39963E+0	5.22798E-4	3.26749E+0	2.52923E-1	1.42043E-1	1.15736E+1
4.59959E+0	6.15906E-4	3.84941E+0	2.78665E-1	1.09690E-1	1.57053E+1
4.79988E+0	7.12342E-4	4.45214E+0	2.98022E-1	1.56903E-1	2.02721E+1
4.99987E+0	8.69202E-4	5.43251E+0	2.94511E-1	1.52820E-1	2.54631E+1
5.19989E+0	1.04314E-3	6.51962E+0	2.99863E-1	1.59422E-1	3.23586E+1
5.39991E+0	1.28846E-3	8.05288E+0	2.88028E-1	1.57762E-1	3.98678E+1
5.59988E+0	1.54512E-3	9.65700E+0	2.89467E-1	1.69886E-1	4.98276E+1
5.79990E+0	1.85168E-3	1.15730E+1	2.77127E-1	1.73844E-1	5.92100E+1
5.99983E+0	2.20303E-3	1.37689E+1	2.72889E-1	1.67459E-1	7.17588E+1
6.19992E+0	2.52271E-3	1.57669E+1	2.68125E-1	1.81797E-1	8.34296E+1
6.39993E+0	2.91952E-3	1.82470E+1	2.59934E-1	1.81672E-1	9.66228E+1
6.59986E+0	3.33699E-3	2.08562E+1	2.52725E-1	1.79120E-1	1.10731E+2
6.79987E+0	3.82648E-3	2.39155E+1	2.42979E-1	1.85629E-1	1.25776E+2
6.99980E+0	4.29829E-3	2.68643E+1	2.35678E-1	1.82300E-1	1.41069E+2
7.19977E+0	4.81346E-3	3.00841E+1	2.29965E-1	1.88682E-1	1.58551E+2
7.39983E+0	5.34405E-3	3.34003E+1	2.23006E-1	1.86417E-1	1.75444E+2
7.59977E+0	5.93610E-3	3.71006E+1	2.15482E-1	1.87372E-1	1.93394E+2
7.79979E+0	6.54681E-3	4.09176E+1	2.07948E-1	1.84118E-1	2.11250E+2
7.99980E+0	7.20412E-3	4.50257E+1	2.02563E-1	1.86483E-1	2.32247E+2
8.19968E+0	7.83071E-3	4.89419E+1	1.97089E-1	1.86432E-1	2.51762E+2
8.39978E+0	8.54237E-3	5.33898E+1	1.92179E-1	1.87198E-1	2.74336E+2
8.59972E+0	9.31762E-3	5.82351E+1	1.85447E-1	1.83618E-1	2.95624E+2
8.79977E+0	1.01456E-2	6.34100E+1	1.79008E-1	1.82945E-1	3.17944E+2
8.99981E+0	1.09803E-2	6.86269E+1	1.73020E-1	1.81176E-1	3.40153E+2
9.19972E+0	1.19139E-2	7.44619E+1	1.67155E-1	1.79766E-1	3.64483E+2
9.39978E+0	1.28933E-2	8.05831E+1	1.60455E-1	1.77016E-1	3.86870E+2
9.60005E+0	1.39181E-2	8.69881E+1	1.54825E-1	1.75314E-1	4.11552E+2
9.79998E+0	1.50144E-2	9.38400E+1	1.49003E-1	1.72151E-1	4.36172E+2
9.99998E+0	1.61710E-2	1.01069E+2	1.42573E-1	1.70268E-1	4.58672E+2
1.02000E+1	1.73793E-2	1.08621E+2	1.36881E-1	1.66534E-1	4.82731E+2
1.04000E+1	1.86542E-2	1.16589E+2	1.30917E-1	1.62805E-1	5.05285E+2
1.05999E+1	1.99860E-2	1.24913E+2	1.24923E-1	1.60178E-1	5.26504E+2
