Voltage(V)	Current(A)	J(mA/cm2)	PE(lm/W)	EQE(%)	L(cd/m2)
-9.99955E-1	-9.15495E-7	-5.72184E-3	-5.58258E+0	-2.22725E+0	-1.01672E-1
-7.99971E-1	-6.32125E-7	-3.95078E-3	9.00763E+1	-6.04499E+0	9.06188E-1
-5.99949E-1	-4.66403E-7	-2.91502E-3	6.82143E+1	1.49063E+1	3.79736E-1
-3.99937E-1	-2.21572E-7	-1.38482E-3	2.01832E+2	-7.97632E+1	3.55817E-1
-1.99981E-1	-7.62344E-8	-4.76465E-4	1.49512E+3	2.79284E+1	4.53468E-1
1.04713E-4	1.10098E-8	6.88112E-5	-4.46716E+6	1.28243E+3	-1.02457E-1
2.00093E-1	9.30654E-8	5.81659E-4	1.44632E+2	4.66605E+1	5.35815E-2
4.00031E-1	2.49012E-7	1.55632E-3	-5.58299E+1	-9.00727E+1	-1.10640E-1
6.00024E-1	5.02787E-7	3.14242E-3	6.25455E+1	-2.33187E+1	3.75386E-1
8.00040E-1	8.82082E-7	5.51301E-3	1.71340E+0	2.81540E-1	2.40552E-2
1.00004E+0	1.31750E-6	8.23438E-3	1.99292E+0	-1.50597E+1	5.22382E-2
1.20005E+0	1.71519E-6	1.07199E-2	1.26428E+1	-3.68369E+0	5.17710E-1
1.40005E+0	2.28366E-6	1.42729E-2	6.63037E+0	-7.29829E+0	4.21738E-1
1.60006E+0	3.22197E-6	2.01373E-2	6.14576E+0	-5.83718E+0	6.30323E-1
1.80004E+0	4.12320E-6	2.57700E-2	8.39552E-1	-4.78003E+0	1.23964E-1
2.00003E+0	5.73004E-6	3.58127E-2	-1.32224E+0	-3.69590E+0	-3.01463E-1
2.20042E+0	7.33864E-6	4.58665E-2	9.47135E-1	-1.47668E+0	3.04273E-1
2.40038E+0	8.40840E-6	5.25525E-2	3.67746E-1	1.88439E-1	1.47663E-1
2.60043E+0	1.06625E-5	6.66406E-2	-2.68404E-1	5.81099E-1	-1.48055E-1
2.80036E+0	1.53533E-5	9.59581E-2	2.69479E-2	-1.22529E+0	2.30500E-2
3.00032E+0	2.38380E-5	1.48988E-1	6.60155E-1	9.91531E-2	9.39320E-1
3.20034E+0	3.72903E-5	2.33064E-1	8.21992E-1	-3.09912E-2	1.95159E+0
3.40032E+0	5.73153E-5	3.58221E-1	8.21522E-1	-9.28862E-2	3.18522E+0
3.60032E+0	9.10255E-5	5.68909E-1	7.83240E-1	1.34021E-1	5.10657E+0
3.80030E+0	1.37042E-4	8.56513E-1	7.89426E-1	1.32357E-1	8.17924E+0
4.00030E+0	2.02014E-4	1.26259E+0	7.57464E-1	2.96851E-1	1.21777E+1
4.20029E+0	2.96054E-4	1.85034E+0	6.62364E-1	3.27788E-1	1.63861E+1
4.40027E+0	4.05394E-4	2.53371E+0	6.27240E-1	3.49207E-1	2.22598E+1
4.60026E+0	5.52214E-4	3.45134E+0	5.83930E-1	3.11451E-1	2.95108E+1
4.80058E+0	7.36671E-4	4.60419E+0	5.40249E-1	3.24226E-1	3.80095E+1
5.00056E+0	9.47762E-4	5.92351E+0	4.99978E-1	3.15495E-1	4.71410E+1
5.20053E+0	1.19139E-3	7.44619E+0	4.81851E-1	3.19215E-1	5.93942E+1
5.40054E+0	1.46094E-3	9.13087E+0	4.47642E-1	2.88324E-1	7.02636E+1
5.60054E+0	1.76621E-3	1.10388E+1	4.15481E-1	2.80595E-1	8.17623E+1
5.80057E+0	2.09796E-3	1.31122E+1	3.96987E-1	2.87535E-1	9.61114E+1
6.00051E+0	2.43327E-3	1.52079E+1	3.78400E-1	2.80839E-1	1.09916E+2
6.20056E+0	2.79724E-3	1.74827E+1	3.59861E-1	2.79160E-1	1.24173E+2
6.40061E+0	3.21123E-3	2.00702E+1	3.43588E-1	2.69475E-1	1.40495E+2
6.60060E+0	3.65137E-3	2.28211E+1	3.27871E-1	2.70492E-1	1.57207E+2
6.80051E+0	4.12870E-3	2.58044E+1	3.12996E-1	2.58808E-1	1.74833E+2
7.00049E+0	4.65732E-3	2.91083E+1	2.96753E-1	2.51643E-1	1.92482E+2
7.20052E+0	5.22228E-3	3.26393E+1	2.84587E-1	2.52282E-1	2.12897E+2
7.40060E+0	5.82827E-3	3.64267E+1	2.71085E-1	2.48213E-1	2.32617E+2
7.60050E+0	6.48312E-3	4.05195E+1	2.58852E-1	2.42384E-1	2.53751E+2
7.80048E+0	7.17342E-3	4.48339E+1	2.47988E-1	2.39268E-1	2.76063E+2
8.00049E+0	7.91282E-3	4.94551E+1	2.37449E-1	2.37358E-1	2.99053E+2
8.20043E+0	8.70216E-3	5.43885E+1	2.27867E-1	2.30642E-1	3.23501E+2
8.40048E+0	9.53792E-3	5.96120E+1	2.17835E-1	2.26664E-1	3.47229E+2
8.60046E+0	1.04375E-2	6.52344E+1	2.09559E-1	2.22775E-1	3.74243E+2
8.80042E+0	1.13724E-2	7.10775E+1	2.00210E-1	2.18509E-1	3.98631E+2
9.00046E+0	1.23515E-2	7.71969E+1	1.92023E-1	2.15507E-1	4.24687E+2
9.20039E+0	1.33813E-2	8.36331E+1	1.85013E-1	2.11593E-1	4.53146E+2
9.40043E+0	1.44500E-2	9.03125E+1	1.78094E-1	2.08387E-1	4.81278E+2
9.60075E+0	1.55757E-2	9.73481E+1	1.71374E-1	2.04622E-1	5.09832E+2
9.80069E+0	1.67468E-2	1.04668E+2	1.64991E-1	2.01831E-1	5.38739E+2
1.00008E+1	1.79667E-2	1.12292E+2	1.59158E-1	1.97676E-1	5.68935E+2
1.02007E+1	1.92307E-2	1.20192E+2	1.53734E-1	1.94364E-1	5.99964E+2
1.03034E+1	2.00027E-2	1.25017E+2	1.50057E-1	1.93183E-1	6.15257E+2
