Voltage(V)	Current(A)	J(mA/cm2)	PE(lm/W)	EQE(%)	L(cd/m2)
-9.99976E-1	-8.48276E-8	-5.30173E-4	4.10476E+2	-1.64542E+2	6.92699E-1
-7.99971E-1	-1.68905E-8	-1.05566E-4	3.70123E+2	1.81882E+2	9.94932E-2
-5.99948E-1	7.87102E-9	4.91939E-5	1.52508E+3	2.93276E+3	1.43274E-1
-3.99946E-1	1.77106E-8	1.10691E-4	2.85733E+3	2.90946E+2	4.02647E-1
-1.99994E-1	2.78405E-8	1.74003E-4	-5.46224E+2	-6.30934E+2	-6.05055E-2
6.42300E-5	3.43548E-8	2.14717E-4	8.25595E+6	5.49709E+2	3.62429E-1
2.00057E-1	3.93826E-8	2.46141E-4	6.08855E+3	-3.25396E+1	9.54337E-1
4.00001E-1	4.64470E-8	2.90294E-4	-5.54129E+2	-2.80442E+2	-2.04814E-1
5.99992E-1	5.82225E-8	3.63891E-4	1.45312E+2	-1.95930E+2	1.00988E-1
7.99996E-1	7.45826E-8	4.66141E-4	7.92844E+2	6.82404E+1	9.41116E-1
9.99981E-1	8.04586E-8	5.02866E-4	1.67017E+0	7.57328E+1	2.67334E-3
1.19998E+0	1.24464E-7	7.77900E-4	1.40292E+2	-8.70874E+0	4.16852E-1
1.39999E+0	1.87344E-7	1.17090E-3	-4.11055E+1	3.77048E+1	-2.14484E-1
1.60000E+0	2.73092E-7	1.70683E-3	2.86355E+0	-1.60327E+1	2.48923E-2
1.79998E+0	4.06109E-7	2.53818E-3	4.24126E+1	1.90933E+1	6.16787E-1
1.99996E+0	5.77674E-7	3.61046E-3	2.13284E+1	3.10275E+1	4.90222E-1
2.19996E+0	8.88369E-7	5.55231E-3	8.21960E+0	6.64477E-1	3.19587E-1
2.39994E+0	1.49210E-6	9.32563E-3	4.22891E+0	1.52774E+0	3.01271E-1
2.59990E+0	2.72456E-6	1.70285E-2	1.71190E+0	-3.50226E+0	2.41247E-1
2.79992E+0	5.21824E-6	3.26140E-2	1.75753E+0	-2.91443E+0	5.10861E-1
2.99985E+0	9.78780E-6	6.11737E-2	1.93088E+0	5.77889E-1	1.12790E+0
3.19973E+0	1.78092E-5	1.11307E-1	1.85009E+0	1.06315E+0	2.09740E+0
3.39981E+0	3.08951E-5	1.93094E-1	1.49292E+0	4.81708E-1	3.11969E+0
3.59987E+0	5.18426E-5	3.24016E-1	1.56017E+0	7.46501E-1	5.79261E+0
3.79980E+0	8.57386E-5	5.35866E-1	1.38118E+0	8.32446E-1	8.95198E+0
3.99981E+0	1.35085E-4	8.44281E-1	1.23967E+0	7.12551E-1	1.33255E+1
4.19979E+0	1.87022E-4	1.16889E+0	1.17148E+0	6.01719E-1	1.83056E+1
4.39978E+0	2.54645E-4	1.59153E+0	1.13590E+0	6.27409E-1	2.53184E+1
4.59974E+0	3.52541E-4	2.20338E+0	1.04384E+0	5.67195E-1	3.36750E+1
4.80016E+0	4.76922E-4	2.98076E+0	9.89386E-1	5.16876E-1	4.50608E+1
5.00011E+0	6.29525E-4	3.93453E+0	9.02331E-1	4.98880E-1	5.65052E+1
5.20011E+0	8.17270E-4	5.10794E+0	8.58894E-1	5.05480E-1	7.26186E+1
5.40006E+0	1.04144E-3	6.50900E+0	7.99086E-1	4.90307E-1	8.94039E+1
5.60008E+0	1.30222E-3	8.13887E+0	7.40209E-1	4.57105E-1	1.07390E+2
5.80014E+0	1.59866E-3	9.99162E+0	7.02083E-1	4.50901E-1	1.29513E+2
6.00004E+0	1.93081E-3	1.20676E+1	6.53950E-1	4.23025E-1	1.50719E+2
6.20009E+0	2.30219E-3	1.43887E+1	6.22767E-1	4.18052E-1	1.76846E+2
6.40010E+0	2.71359E-3	1.69599E+1	5.81049E-1	4.15536E-1	2.00758E+2
6.60007E+0	3.16207E-3	1.97629E+1	5.54000E-1	4.03822E-1	2.30017E+2
6.80006E+0	3.64959E-3	2.28099E+1	5.22209E-1	3.85715E-1	2.57829E+2
6.99995E+0	4.17390E-3	2.60869E+1	4.97594E-1	3.84196E-1	2.89229E+2
7.20001E+0	4.74277E-3	2.96423E+1	4.70757E-1	3.71486E-1	3.19810E+2
7.40002E+0	5.35664E-3	3.34790E+1	4.48078E-1	3.64451E-1	3.53353E+2
7.59998E+0	6.01967E-3	3.76229E+1	4.24516E-1	3.54440E-1	3.86375E+2
7.79998E+0	6.73529E-3	4.20956E+1	4.06248E-1	3.49299E-1	4.24592E+2
7.99999E+0	7.49613E-3	4.68508E+1	3.85970E-1	3.37293E-1	4.60480E+2
8.19989E+0	8.31710E-3	5.19819E+1	3.69361E-1	3.30090E-1	5.01143E+2
8.39999E+0	9.19865E-3	5.74916E+1	3.51092E-1	3.25172E-1	5.39702E+2
8.59997E+0	1.01504E-2	6.34400E+1	3.36386E-1	3.17525E-1	5.84182E+2
8.79996E+0	1.11432E-2	6.96450E+1	3.20165E-1	3.10240E-1	6.24589E+2
8.99998E+0	1.22111E-2	7.63194E+1	3.07759E-1	3.05237E-1	6.72879E+2
9.19987E+0	1.33420E-2	8.33875E+1	2.92899E-1	2.97030E-1	7.15237E+2
9.39985E+0	1.45481E-2	9.09256E+1	2.81535E-1	2.91411E-1	7.65931E+2
9.60015E+0	1.58152E-2	9.88450E+1	2.68454E-1	2.84179E-1	8.10873E+2
9.80017E+0	1.71582E-2	1.07239E+2	2.58001E-1	2.78205E-1	8.63091E+2
1.00001E+1	1.85691E-2	1.16057E+2	2.47214E-1	2.72861E-1	9.13270E+2
1.01846E+1	2.00007E-2	1.25004E+2	2.34882E-1	2.64312E-1	9.51851E+2
