Voltage(V)	Current(A)	J(mA/cm2)	PE(lm/W)	EQE(%)	L(cd/m2)
-9.99973E-1	-5.44944E-7	-3.40590E-3	7.88864E-1	1.80410E+1	8.55210E-3
-7.99994E-1	-6.02523E-7	-3.76577E-3	3.70187E+0	6.52013E+1	3.54986E-2
-5.99973E-1	-4.52373E-7	-2.82733E-3	-1.54324E+1	6.31223E+1	-8.33283E-2
-3.99965E-1	-2.96947E-7	-1.85592E-3	1.00202E+2	6.77776E+1	2.36760E-1
-2.00012E-1	-1.22350E-7	-7.64688E-4	-1.30792E+3	2.49217E+2	-6.36756E-1
2.12908E-5	7.79736E-10	4.87335E-6	-2.10770E+9	2.56410E+4	-6.96112E-1
2.00011E-1	1.20882E-7	7.55513E-4	-5.49801E+1	2.24734E+2	-2.64454E-2
3.99963E-1	3.06168E-7	1.91355E-3	-1.24965E+0	9.99792E+1	-3.04437E-3
5.99957E-1	5.60528E-7	3.50330E-3	7.25771E+0	6.02819E+1	4.85565E-2
7.99963E-1	9.13909E-7	5.71193E-3	1.99642E+1	-1.71987E+1	2.90372E-1
9.99967E-1	9.57209E-7	5.98256E-3	-3.47856E+1	5.13833E+0	-6.62402E-1
1.19998E+0	1.45106E-6	9.06912E-3	-2.15938E+0	7.60468E+0	-7.48030E-2
1.39998E+0	1.98015E-6	1.23759E-2	-8.11941E+0	2.25191E+1	-4.47790E-1
1.59998E+0	2.53188E-6	1.58243E-2	9.86148E-1	2.12299E+1	7.94749E-2
1.79997E+0	3.25651E-6	2.03532E-2	4.47866E+0	6.22662E+0	5.22271E-1
1.99996E+0	4.59643E-6	2.87277E-2	2.58939E+0	8.35607E+0	4.73555E-1
2.19988E+0	5.06725E-6	3.16703E-2	1.22265E+0	6.59498E+0	2.71146E-1
2.39985E+0	6.42593E-6	4.01621E-2	6.10588E-1	3.94913E+0	1.87326E-1
2.59980E+0	8.07934E-6	5.04959E-2	-1.69760E-1	2.17701E+0	-7.09385E-2
2.79969E+0	1.10365E-5	6.89781E-2	9.38763E-2	1.10952E+0	5.77069E-2
2.99981E+0	1.59675E-5	9.97969E-2	1.68762E-1	2.19868E+0	1.60818E-1
3.19981E+0	2.60394E-5	1.62746E-1	5.87816E-1	1.75196E+0	9.74377E-1
3.39974E+0	4.32533E-5	2.70333E-1	5.21033E-1	6.31246E-1	1.52426E+0
3.59972E+0	7.29429E-5	4.55893E-1	6.84108E-1	8.24488E-1	3.57361E+0
3.79979E+0	1.17611E-4	7.35069E-1	5.99691E-1	5.53302E-1	5.33170E+0
3.99966E+0	1.77008E-4	1.10630E+0	5.56226E-1	3.68081E-1	7.83425E+0
4.19966E+0	2.58937E-4	1.61836E+0	5.06037E-1	3.53297E-1	1.09476E+1
4.39967E+0	3.69415E-4	2.30884E+0	4.57854E-1	3.10103E-1	1.48044E+1
4.59960E+0	5.14102E-4	3.21314E+0	4.18934E-1	2.83426E-1	1.97081E+1
4.79997E+0	6.87526E-4	4.29704E+0	4.01896E-1	2.25422E-1	2.63859E+1
4.99991E+0	8.99070E-4	5.61919E+0	3.83375E-1	2.34185E-1	3.42854E+1
5.19995E+0	1.14931E-3	7.18319E+0	3.57897E-1	2.31569E-1	4.25525E+1
5.40001E+0	1.43483E-3	8.96769E+0	3.34596E-1	2.10516E-1	5.15758E+1
5.59999E+0	1.74809E-3	1.09256E+1	3.18249E-1	2.25908E-1	6.19795E+1
5.80000E+0	2.06124E-3	1.28828E+1	3.04514E-1	2.17299E-1	7.24259E+1
5.99997E+0	2.41604E-3	1.51002E+1	2.91640E-1	2.25367E-1	8.41066E+1
6.20005E+0	2.81974E-3	1.76234E+1	2.75739E-1	2.09348E-1	9.59031E+1
6.40002E+0	3.25293E-3	2.03308E+1	2.65011E-1	2.08772E-1	1.09761E+2
6.59992E+0	3.73070E-3	2.33169E+1	2.50108E-1	2.06913E-1	1.22514E+2
6.79991E+0	4.25341E-3	2.65838E+1	2.40320E-1	2.03620E-1	1.38280E+2
6.99991E+0	4.81825E-3	3.01141E+1	2.27838E-1	2.00217E-1	1.52875E+2
7.19986E+0	5.43009E-3	3.39381E+1	2.17885E-1	1.98540E-1	1.69469E+2
7.39990E+0	6.08491E-3	3.80307E+1	2.08085E-1	1.98113E-1	1.86402E+2
7.59990E+0	6.79140E-3	4.24462E+1	2.00163E-1	1.90589E-1	2.05533E+2
7.79987E+0	7.54501E-3	4.71563E+1	1.90539E-1	1.90530E-1	2.23080E+2
7.99989E+0	8.34921E-3	5.21826E+1	1.83060E-1	1.90250E-1	2.43250E+2
8.19980E+0	9.20427E-3	5.75267E+1	1.74939E-1	1.84599E-1	2.62670E+2
8.39983E+0	1.01123E-2	6.32019E+1	1.68934E-1	1.84919E-1	2.85474E+2
8.59975E+0	1.10582E-2	6.91138E+1	1.61679E-1	1.82771E-1	3.05882E+2
8.79985E+0	1.20648E-2	7.54050E+1	1.55234E-1	1.80958E-1	3.27877E+2
8.99982E+0	1.31236E-2	8.20225E+1	1.48699E-1	1.77458E-1	3.49402E+2
9.19975E+0	1.42279E-2	8.89244E+1	1.43691E-1	1.74368E-1	3.74175E+2
9.39979E+0	1.53902E-2	9.61887E+1	1.37436E-1	1.72369E-1	3.95543E+2
9.60008E+0	1.66012E-2	1.03757E+2	1.32566E-1	1.70931E-1	4.20318E+2
9.80010E+0	1.78675E-2	1.11672E+2	1.27319E-1	1.67386E-1	4.43526E+2
1.00001E+1	1.91862E-2	1.19914E+2	1.22929E-1	1.65867E-1	4.69223E+2
1.00987E+1	1.99995E-2	1.24997E+2	1.18596E-1	1.61126E-1	4.76526E+2
