Voltage(V)	Current(A)	J(mA/cm2)	PE(lm/W)	EQE(%)	L(cd/m2)
-9.99981E-1	-1.90414E-7	-1.19009E-3	5.56414E+1	-4.03866E+1	2.10775E-1
-7.99998E-1	-9.91554E-8	-6.19721E-4	-1.15229E+2	-7.76909E+0	-1.81844E-1
-5.99960E-1	-2.39894E-8	-1.49934E-4	-7.11526E+2	-3.31939E+2	-2.03734E-1
-3.99947E-1	7.91600E-9	4.94750E-5	-4.71318E+3	-3.85726E+2	-2.96861E-1
-1.99989E-1	2.61842E-8	1.63651E-4	3.43140E+2	6.34274E+2	3.57476E-2
6.07967E-5	3.36484E-8	2.10303E-4	8.01054E+6	1.03320E+2	3.26014E-1
2.00048E-1	3.04050E-8	1.90031E-4	-5.48165E+3	-3.26483E+1	-6.63317E-1
3.99998E-1	4.84179E-8	3.02612E-4	1.25176E+1	5.95699E+2	4.82298E-3
5.99990E-1	6.20929E-8	3.88081E-4	3.83820E+2	-9.03278E+1	2.84475E-1
8.00000E-1	9.26909E-8	5.79318E-4	2.83705E+2	2.14459E+2	4.18528E-1
9.99992E-1	1.32104E-7	8.25650E-4	-5.31130E+1	9.07130E+1	-1.39587E-1
1.19999E+0	2.16142E-7	1.35089E-3	-6.44297E+1	6.79577E+1	-3.32455E-1
1.39999E+0	3.50546E-7	2.19091E-3	5.70602E-1	-3.59432E+1	5.57100E-3
1.59999E+0	5.47048E-7	3.41905E-3	-2.28747E+0	1.30397E+1	-3.98317E-2
1.79998E+0	8.49395E-7	5.30872E-3	-1.87399E+1	1.73411E+0	-5.70001E-1
1.99997E+0	1.22296E-6	7.64350E-3	-1.70045E+1	3.73035E+0	-8.27428E-1
2.19998E+0	1.76100E-6	1.10063E-2	-6.04780E+0	-1.04647E+1	-4.66128E-1
2.39993E+0	2.50646E-6	1.56654E-2	1.38854E+0	-5.08045E+0	1.66168E-1
2.59993E+0	3.71175E-6	2.31984E-2	-2.58852E+0	-4.46447E+0	-4.96961E-1
2.79991E+0	5.89018E-6	3.68136E-2	-1.24707E+0	-1.02675E+0	-4.09161E-1
2.99985E+0	1.03652E-5	6.47825E-2	9.04551E-1	8.16971E-1	5.59552E-1
3.19987E+0	1.83236E-5	1.14522E-1	3.59516E-1	2.46668E-1	4.19364E-1
3.39983E+0	3.13751E-5	1.96094E-1	3.97078E-1	6.05532E-1	8.42653E-1
3.59981E+0	5.64601E-5	3.52876E-1	5.06784E-1	2.97324E-1	2.04915E+0
3.79984E+0	8.81467E-5	5.50917E-1	5.53227E-1	2.26578E-1	3.68642E+0
3.99977E+0	1.29223E-4	8.07644E-1	5.50999E-1	2.18459E-1	5.66573E+0
4.19977E+0	1.92600E-4	1.20375E+0	4.72841E-1	1.46766E-1	7.60900E+0
4.39976E+0	2.75956E-4	1.72472E+0	4.31461E-1	1.59913E-1	1.04217E+1
4.59968E+0	3.67910E-4	2.29944E+0	4.00593E-1	1.97540E-1	1.34866E+1
4.80000E+0	4.94247E-4	3.08904E+0	3.64534E-1	1.94529E-1	1.72050E+1
4.99998E+0	6.43512E-4	4.02195E+0	3.46503E-1	1.40581E-1	2.21800E+1
5.20000E+0	8.22464E-4	5.14040E+0	3.19595E-1	2.03900E-1	2.71926E+1
5.39997E+0	1.02755E-3	6.42219E+0	3.10747E-1	1.85761E-1	3.43029E+1
5.60000E+0	1.26206E-3	7.88787E+0	2.82644E-1	1.74104E-1	3.97409E+1
5.80005E+0	1.53422E-3	9.58887E+0	2.61822E-1	1.77931E-1	4.63506E+1
5.99999E+0	1.95617E-3	1.22261E+1	2.30701E-1	1.56609E-1	5.38688E+1
6.20002E+0	1.99522E-3	1.24701E+1	2.53131E-1	1.84585E-1	6.22959E+1
6.40010E+0	2.31142E-3	1.44464E+1	2.37445E-1	1.70825E-1	6.98811E+1
6.60004E+0	2.69374E-3	1.68359E+1	2.26914E-1	1.74118E-1	8.02590E+1
6.80006E+0	3.10720E-3	1.94200E+1	2.13533E-1	1.66088E-1	8.97589E+1
7.00003E+0	3.49367E-3	2.18354E+1	2.06252E-1	1.68500E-1	1.00348E+2
7.20003E+0	3.97085E-3	2.48178E+1	1.96817E-1	1.59304E-1	1.11946E+2
7.40001E+0	4.45582E-3	2.78489E+1	1.89976E-1	1.65001E-1	1.24620E+2
7.60001E+0	4.95755E-3	3.09847E+1	1.82392E-1	1.59409E-1	1.36715E+2
7.80003E+0	5.51736E-3	3.44835E+1	1.77350E-1	1.65285E-1	1.51841E+2
8.00004E+0	6.10475E-3	3.81547E+1	1.71398E-1	1.61852E-1	1.66531E+2
8.19996E+0	6.74286E-3	4.21429E+1	1.66083E-1	1.58995E-1	1.82689E+2
8.40004E+0	7.36404E-3	4.60252E+1	1.61254E-1	1.59015E-1	1.98445E+2
8.60001E+0	8.10226E-3	5.06391E+1	1.56325E-1	1.60441E-1	2.16702E+2
8.80001E+0	8.89787E-3	5.56117E+1	1.49922E-1	1.57777E-1	2.33542E+2
9.00005E+0	9.73958E-3	6.08724E+1	1.45029E-1	1.56090E-1	2.52913E+2
9.20003E+0	1.06560E-2	6.66000E+1	1.38876E-1	1.53264E-1	2.70858E+2
9.40007E+0	1.16091E-2	7.25569E+1	1.33467E-1	1.51117E-1	2.89756E+2
9.60034E+0	1.25906E-2	7.86912E+1	1.29664E-1	1.49606E-1	3.11805E+2
9.80025E+0	1.36399E-2	8.52494E+1	1.25202E-1	1.48908E-1	3.32958E+2
1.00002E+1	1.47238E-2	9.20238E+1	1.20463E-1	1.47283E-1	3.52869E+2
1.02003E+1	1.59105E-2	9.94406E+1	1.16240E-1	1.46621E-1	3.75304E+2
1.04002E+1	1.71435E-2	1.07147E+2	1.11844E-1	1.44088E-1	3.96721E+2
1.06002E+1	1.84246E-2	1.15154E+2	1.08233E-1	1.41836E-1	4.20536E+2
1.08001E+1	1.97633E-2	1.23521E+2	1.03775E-1	1.40019E-1	4.40667E+2
