Voltage(V)	Current(A)	J(mA/cm2)	PE(lm/W)	EQE(%)	L(cd/m2)
-9.99965E-1	-5.84974E-7	-3.65609E-3	3.89350E+1	2.60571E+1	4.53098E-1
-7.99991E-1	-3.60024E-7	-2.25015E-3	-2.56119E+1	-1.05586E+1	-1.46753E-1
-5.99970E-1	-1.78096E-7	-1.11310E-3	1.50843E+2	-5.05773E+1	3.20655E-1
-3.99956E-1	-7.59463E-8	-4.74664E-4	1.04224E+3	-1.40024E+2	6.29822E-1
-1.99986E-1	-1.22476E-10	-7.65475E-7	7.64365E+5	8.42164E+4	3.72461E-1
7.46727E-5	2.50998E-8	1.56874E-4	4.48680E+6	2.98093E+2	1.67301E-1
2.00065E-1	4.34613E-8	2.71633E-4	2.10339E+3	4.68179E+2	3.63851E-1
4.00018E-1	8.48377E-8	5.30236E-4	7.01829E+2	2.58443E+2	4.73838E-1
6.00000E-1	1.35272E-7	8.45450E-4	4.44635E+2	-8.93993E+1	7.17948E-1
8.00005E-1	2.81677E-7	1.76048E-3	-1.64951E+0	3.41887E+0	-7.39483E-3
1.00001E+0	4.57184E-7	2.85740E-3	4.30998E+1	1.60362E+1	3.92014E-1
1.20002E+0	7.36304E-7	4.60190E-3	-9.00968E+0	-1.77693E+1	-1.58374E-1
1.40002E+0	1.07574E-6	6.72337E-3	2.07568E+0	-4.24128E-2	6.21915E-2
1.60002E+0	1.48635E-6	9.28969E-3	6.41906E+0	6.27835E+0	3.03703E-1
1.80001E+0	1.97355E-6	1.23347E-2	-9.68728E-1	1.07498E+1	-6.84629E-2
1.99999E+0	2.75152E-6	1.71970E-2	1.24350E+0	-6.51218E+0	1.36137E-1
2.20019E+0	3.75247E-6	2.34529E-2	-3.11698E+0	3.14989E-1	-5.11967E-1
2.40012E+0	5.16914E-6	3.23071E-2	1.74562E+0	-2.69020E+0	4.30856E-1
2.60008E+0	6.69482E-6	4.18426E-2	1.85757E+0	-1.49764E+0	6.43282E-1
2.80005E+0	9.72158E-6	6.07599E-2	1.40442E+0	1.82200E+0	7.60551E-1
2.99995E+0	1.46334E-5	9.14587E-2	1.11732E+0	2.21425E+0	9.75814E-1
3.20005E+0	2.25699E-5	1.41062E-1	5.96098E-1	4.86437E-1	8.56514E-1
3.40001E+0	3.57843E-5	2.23652E-1	4.93011E-1	1.93216E-1	1.19333E+0
3.60004E+0	5.59300E-5	3.49562E-1	6.45652E-1	3.48759E-1	2.58631E+0
3.80001E+0	8.37257E-5	5.23286E-1	6.55458E-1	3.68170E-1	4.14876E+0
3.99996E+0	1.23538E-4	7.72112E-1	5.88731E-1	9.29966E-2	5.78766E+0
4.19995E+0	1.77386E-4	1.10866E+0	5.33894E-1	1.23761E-1	7.91314E+0
4.39992E+0	2.49354E-4	1.55846E+0	4.90870E-1	2.70004E-1	1.07142E+1
4.59990E+0	3.37505E-4	2.10941E+0	4.57217E-1	2.22070E-1	1.41215E+1
4.80021E+0	4.56530E-4	2.85331E+0	4.23835E-1	2.18876E-1	1.84781E+1
5.00016E+0	6.02741E-4	3.76713E+0	3.97004E-1	2.03861E-1	2.38035E+1
5.20020E+0	7.71682E-4	4.82301E+0	3.73634E-1	1.99871E-1	2.98288E+1
5.40012E+0	9.76478E-4	6.10299E+0	3.47728E-1	1.95574E-1	3.64784E+1
5.60008E+0	1.20505E-3	7.53156E+0	3.43843E-1	1.98777E-1	4.61625E+1
5.80019E+0	1.46530E-3	9.15812E+0	3.20409E-1	2.06890E-1	5.41756E+1
6.00013E+0	1.75350E-3	1.09594E+1	3.05757E-1	2.09754E-1	6.39989E+1
6.20014E+0	2.07340E-3	1.29588E+1	2.92184E-1	2.03186E-1	7.47258E+1
6.40021E+0	2.42303E-3	1.51439E+1	2.79033E-1	2.09685E-1	8.60874E+1
6.60012E+0	2.80933E-3	1.75583E+1	2.66738E-1	2.01657E-1	9.83942E+1
6.80013E+0	3.23271E-3	2.02044E+1	2.53195E-1	1.91572E-1	1.10731E+2
7.00011E+0	3.69416E-3	2.30885E+1	2.41705E-1	1.91770E-1	1.24347E+2
7.20006E+0	4.19597E-3	2.62248E+1	2.31424E-1	1.87423E-1	1.39093E+2
7.40009E+0	4.74133E-3	2.96333E+1	2.22293E-1	1.84388E-1	1.55165E+2
7.60010E+0	5.32839E-3	3.33024E+1	2.12159E-1	1.80922E-1	1.70926E+2
7.80008E+0	5.96909E-3	3.73068E+1	2.02885E-1	1.84169E-1	1.87926E+2
8.00006E+0	6.65277E-3	4.15798E+1	1.94177E-1	1.79237E-1	2.05600E+2
8.19997E+0	7.39379E-3	4.62112E+1	1.86270E-1	1.77130E-1	2.24674E+2
8.40002E+0	8.19280E-3	5.12050E+1	1.78105E-1	1.74450E-1	2.43848E+2
8.60002E+0	9.04243E-3	5.65152E+1	1.71403E-1	1.76329E-1	2.65175E+2
8.79996E+0	9.95402E-3	6.22126E+1	1.64295E-1	1.71957E-1	2.86308E+2
9.00002E+0	1.09279E-2	6.82994E+1	1.57712E-1	1.69310E-1	3.08585E+2
9.20000E+0	1.19383E-2	7.46144E+1	1.51477E-1	1.68316E-1	3.30983E+2
9.39999E+0	1.30260E-2	8.14125E+1	1.46112E-1	1.64632E-1	3.55921E+2
9.60031E+0	1.41712E-2	8.85700E+1	1.39905E-1	1.63170E-1	3.78664E+2
9.80032E+0	1.53760E-2	9.61000E+1	1.34895E-1	1.59855E-1	4.04399E+2
1.00004E+1	1.66624E-2	1.04140E+2	1.29973E-1	1.58005E-1	4.30861E+2
1.02003E+1	1.79786E-2	1.12366E+2	1.25121E-1	1.55126E-1	4.56489E+2
1.04003E+1	1.93676E-2	1.21047E+2	1.20899E-1	1.54453E-1	4.84478E+2
1.04614E+1	2.00008E-2	1.25005E+2	1.17887E-1	1.51363E-1	4.90720E+2
