Voltage(V)	Current(A)	J(mA/cm2)	PE(lm/W)	EQE(%)	L(cd/m2)
-9.99960E-1	-1.94174E-6	-1.21359E-2	7.28282E+0	8.09950E+0	2.81322E-1
-7.99978E-1	-1.16015E-6	-7.25094E-3	2.74039E+1	2.07913E+1	5.05982E-1
-5.99958E-1	-6.06084E-7	-3.78802E-3	8.75444E+1	1.00661E+1	6.33304E-1
-3.99951E-1	-2.58619E-7	-1.61637E-3	4.92299E+2	3.36300E+1	1.01304E+0
-2.00002E-1	-7.22766E-8	-4.51729E-4	1.54272E+3	7.15137E+1	4.43659E-1
5.83649E-5	1.24099E-8	7.75619E-5	5.59983E+7	1.10016E+3	8.06911E-1
2.00053E-1	8.05652E-8	5.03532E-4	1.39466E+3	1.55085E+2	4.47190E-1
3.99994E-1	2.05158E-7	1.28224E-3	3.73142E+2	-3.36987E+0	6.09180E-1
5.99976E-1	4.64628E-7	2.90392E-3	1.19986E+2	-1.05371E+1	6.65426E-1
7.99987E-1	8.77799E-7	5.48624E-3	5.63381E+1	2.04444E+1	7.87065E-1
9.99991E-1	1.53057E-6	9.56606E-3	1.61465E+1	4.32790E-1	4.91651E-1
1.20000E+0	2.44529E-6	1.52831E-2	5.73434E+0	3.23779E+0	3.34753E-1
1.40000E+0	3.80570E-6	2.37856E-2	6.80835E+0	5.46489E+0	7.21664E-1
1.60000E+0	5.69064E-6	3.55665E-2	3.51457E+0	-8.52340E-1	6.36624E-1
1.79998E+0	8.21234E-6	5.13271E-2	3.50222E+0	3.94268E-1	1.02993E+0
1.99997E+0	1.16822E-5	7.30138E-2	2.09528E+0	7.48530E-1	9.73915E-1
2.20013E+0	1.60078E-5	1.00049E-1	8.93754E-1	-8.76285E-1	6.26222E-1
2.40008E+0	2.17233E-5	1.35771E-1	7.57652E-1	8.05704E-1	7.85871E-1
2.60012E+0	2.91235E-5	1.82022E-1	5.18210E-1	4.20990E-1	7.80679E-1
2.80006E+0	3.94306E-5	2.46441E-1	2.38357E-1	-3.00121E-1	5.23551E-1
3.00002E+0	5.29400E-5	3.30875E-1	3.72028E-1	3.82872E-1	1.17548E+0
3.20006E+0	7.06464E-5	4.41540E-1	2.86133E-1	4.22472E-1	1.28690E+0
3.40001E+0	9.44496E-5	5.90310E-1	1.27100E-1	2.80459E-1	8.12002E-1
3.60008E+0	1.27568E-4	7.97300E-1	2.08166E-1	1.21825E-1	1.90192E+0
3.80000E+0	1.70012E-4	1.06258E+0	2.14640E-1	1.03472E-1	2.75869E+0
3.99997E+0	2.25679E-4	1.41049E+0	2.52484E-1	1.20440E-1	4.53433E+0
4.19993E+0	3.33581E-4	2.08488E+0	1.78022E-1	8.84937E-2	4.96189E+0
4.39989E+0	4.34469E-4	2.71543E+0	1.64104E-1	1.03418E-1	6.24094E+0
4.59992E+0	5.05725E-4	3.16078E+0	1.63638E-1	1.05202E-1	7.57321E+0
4.80020E+0	6.13494E-4	3.83434E+0	1.69590E-1	1.01034E-1	9.93571E+0
5.00014E+0	7.69085E-4	4.80678E+0	1.53632E-1	1.07319E-1	1.17536E+1
5.20016E+0	9.56975E-4	5.98109E+0	1.52332E-1	1.11147E-1	1.50813E+1
5.40013E+0	1.17606E-3	7.35038E+0	1.46697E-1	1.01496E-1	1.85347E+1
5.60013E+0	1.44814E-3	9.05088E+0	1.39785E-1	9.41869E-2	2.25527E+1
5.80019E+0	1.73447E-3	1.08404E+1	1.31567E-1	9.22096E-2	2.63321E+1
6.00015E+0	2.06547E-3	1.29092E+1	1.28388E-1	9.47775E-2	3.16545E+1
6.20015E+0	2.44248E-3	1.52655E+1	1.24030E-1	9.09281E-2	3.73671E+1
6.40016E+0	2.85907E-3	1.78692E+1	1.17983E-1	9.51916E-2	4.29501E+1
6.60017E+0	3.31572E-3	2.07233E+1	1.13403E-1	9.53879E-2	4.93728E+1
6.80019E+0	3.81809E-3	2.38631E+1	1.09432E-1	9.45991E-2	5.65253E+1
7.00013E+0	4.37091E-3	2.73182E+1	1.03760E-1	9.08331E-2	6.31592E+1
7.20010E+0	4.96145E-3	3.10091E+1	1.00248E-1	8.79737E-2	7.12447E+1
7.40008E+0	5.62307E-3	3.51442E+1	9.55150E-2	8.35220E-2	7.90700E+1
7.60006E+0	6.34098E-3	3.96311E+1	9.08856E-2	8.82453E-2	8.71362E+1
7.80008E+0	7.12483E-3	4.45302E+1	8.63618E-2	8.50904E-2	9.54829E+1
8.00006E+0	7.94201E-3	4.96376E+1	8.27429E-2	8.35719E-2	1.04589E+2
8.19998E+0	8.81373E-3	5.50858E+1	7.90814E-2	8.01719E-2	1.13704E+2
8.40004E+0	9.75604E-3	6.09753E+1	7.54316E-2	8.09457E-2	1.22981E+2
8.59998E+0	1.07541E-2	6.72131E+1	7.22702E-2	7.91073E-2	1.32972E+2
8.80003E+0	1.18373E-2	7.39831E+1	6.83884E-2	7.55701E-2	1.41726E+2
9.00003E+0	1.29501E-2	8.09381E+1	6.55186E-2	7.37827E-2	1.51919E+2
9.19995E+0	1.40912E-2	8.80700E+1	6.24924E-2	7.34592E-2	1.61172E+2
9.39999E+0	1.52633E-2	9.53956E+1	6.06913E-2	7.35074E-2	1.73234E+2
9.60025E+0	1.64421E-2	1.02763E+2	5.88677E-2	7.19536E-2	1.84862E+2
9.80025E+0	1.76744E-2	1.10465E+2	5.72296E-2	7.16751E-2	1.97212E+2
1.00003E+1	1.89050E-2	1.18156E+2	5.57786E-2	7.19291E-2	2.09791E+2
1.01783E+1	2.00014E-2	1.25009E+2	5.48897E-2	7.05004E-2	2.22309E+2
