Voltage(V)	Current(A)	J(mA/cm2)	PE(lm/W)	EQE(%)	L(cd/m2)
-9.99957E-1	-8.44588E-6	-5.27867E-2	-3.14835E+0	-2.99869E+0	-5.28980E-1
-7.99977E-1	-4.98289E-6	-3.11431E-2	1.15267E+0	2.41422E+0	9.14098E-2
-5.99954E-1	-2.94899E-6	-1.84312E-2	1.81835E+1	3.26797E+0	6.40026E-1
-3.99946E-1	-1.32940E-6	-8.30875E-3	-2.65321E+1	1.77571E+0	-2.80646E-1
-1.99996E-1	-3.83257E-7	-2.39536E-3	-1.22713E+2	-3.32734E+1	-1.87125E-1
6.26564E-5	7.39598E-10	4.62249E-6	3.91418E+8	-4.88328E+4	3.60854E-1
2.00049E-1	2.27987E-7	1.42492E-3	-3.31072E+2	-6.02022E+1	-3.00400E-1
3.99993E-1	9.66298E-7	6.03936E-3	-5.74315E+1	-1.29913E+1	-4.41615E-1
5.99978E-1	2.32503E-6	1.45314E-2	-1.32745E+0	-7.25330E+0	-3.68394E-2
7.99998E-1	4.24344E-6	2.65215E-2	-2.07788E+0	-4.75568E+0	-1.40332E-1
9.99996E-1	7.69989E-6	4.81243E-2	-1.29258E+0	-9.92129E-1	-1.98002E-1
1.20001E+0	1.16444E-5	7.27775E-2	1.05977E-1	-6.55725E-1	2.94607E-2
1.40001E+0	1.65824E-5	1.03640E-1	6.33692E-1	-2.94407E-1	2.92676E-1
1.60001E+0	1.98271E-5	1.23919E-1	-1.92739E-1	2.91399E-1	-1.21641E-1
1.79999E+0	2.64925E-5	1.65578E-1	-3.36169E-1	9.21604E-3	-3.18919E-1
1.99998E+0	3.12893E-5	1.95558E-1	4.90042E-2	-6.32894E-1	6.10078E-2
2.20010E+0	3.56781E-5	2.22988E-1	-5.27299E-2	-3.99906E-1	-8.23439E-2
2.40006E+0	4.13459E-5	2.58412E-1	4.87317E-2	-5.49509E-1	9.62046E-2
2.60006E+0	4.74466E-5	2.96541E-1	-1.24112E-3	-2.76443E-1	-3.04602E-3
2.79996E+0	5.27281E-5	3.29551E-1	-2.22727E-1	-3.32240E-1	-6.54179E-1
2.99991E+0	6.12670E-5	3.82919E-1	2.19728E-2	1.43037E-2	8.03435E-2
3.19998E+0	6.88535E-5	4.30334E-1	-9.26816E-2	-1.94344E-1	-4.06253E-1
3.39987E+0	8.20377E-5	5.12736E-1	6.53126E-2	-8.24675E-2	3.62413E-1
3.59986E+0	9.85664E-5	6.16040E-1	1.95707E-1	1.46539E-1	1.38150E+0
3.79988E+0	1.22077E-4	7.62981E-1	1.28894E-1	-3.03332E-2	1.18951E+0
3.99984E+0	1.53658E-4	9.60363E-1	1.60959E-1	6.33225E-2	1.96808E+0
4.19980E+0	1.82099E-4	1.13812E+0	1.60508E-1	2.48172E-2	2.44210E+0
4.39977E+0	2.23946E-4	1.39966E+0	1.72940E-1	1.15798E-2	3.39000E+0
4.59978E+0	2.79307E-4	1.74567E+0	1.45344E-1	3.55051E-2	3.71489E+0
4.80009E+0	3.45851E-4	2.16157E+0	1.58318E-1	2.25630E-2	5.22877E+0
5.00008E+0	4.24949E-4	2.65593E+0	1.55195E-1	9.43839E-2	6.56028E+0
5.20008E+0	5.26602E-4	3.29126E+0	1.59734E-1	6.49122E-2	8.70204E+0
5.40006E+0	6.35278E-4	3.97049E+0	1.56424E-1	3.60895E-3	1.06757E+1
5.60004E+0	7.77952E-4	4.86220E+0	1.43169E-1	6.60132E-2	1.24086E+1
5.80010E+0	9.25068E-4	5.78167E+0	1.44521E-1	8.20551E-2	1.54265E+1
6.00006E+0	1.09067E-3	6.81669E+0	1.38535E-1	7.62135E-2	1.80359E+1
6.20018E+0	1.26623E-3	7.91394E+0	1.33913E-1	8.73190E-2	2.09155E+1
6.40014E+0	1.43836E-3	8.98975E+0	1.32863E-1	8.42349E-2	2.43327E+1
6.60009E+0	1.65888E-3	1.03680E+1	1.29139E-1	9.90308E-2	2.81290E+1
6.80007E+0	1.91079E-3	1.19424E+1	1.21900E-1	8.76987E-2	3.15107E+1
7.00001E+0	2.13329E-3	1.33331E+1	1.21027E-1	9.04639E-2	3.59552E+1
7.19996E+0	2.45282E-3	1.53301E+1	1.18764E-1	8.59827E-2	4.17265E+1
7.40001E+0	2.77895E-3	1.73684E+1	1.11584E-1	9.57361E-2	4.56506E+1
7.60002E+0	3.13467E-3	1.95917E+1	1.08190E-1	9.33054E-2	5.12771E+1
7.80006E+0	3.52683E-3	2.20427E+1	1.02864E-1	9.35468E-2	5.62960E+1
8.00001E+0	3.96094E-3	2.47559E+1	1.00698E-1	8.48665E-2	6.34805E+1
8.19995E+0	4.45889E-3	2.78681E+1	9.48640E-2	8.65646E-2	6.90033E+1
8.40003E+0	4.93621E-3	3.08513E+1	9.16303E-2	8.87155E-2	7.55864E+1
8.59999E+0	5.45200E-3	3.40750E+1	8.75098E-2	8.50960E-2	8.16283E+1
8.80000E+0	5.98121E-3	3.73826E+1	8.44655E-2	8.95285E-2	8.84466E+1
9.00003E+0	6.50899E-3	4.06812E+1	7.91378E-2	8.59266E-2	9.22299E+1
9.19994E+0	6.75068E-3	4.21917E+1	7.94095E-2	8.94987E-2	9.81150E+1
9.40001E+0	7.51107E-3	4.69442E+1	7.51020E-2	8.22891E-2	1.05490E+2
9.60025E+0	8.12034E-3	5.07521E+1	7.32571E-2	8.19355E-2	1.13615E+2
9.80023E+0	8.94776E-3	5.59235E+1	7.02298E-2	8.32098E-2	1.22519E+2
1.00002E+1	9.72921E-3	6.08076E+1	6.66219E-2	7.89339E-2	1.28954E+2
1.02003E+1	1.05353E-2	6.58456E+1	6.56753E-2	8.12794E-2	1.40408E+2
1.04003E+1	1.13587E-2	7.09919E+1	6.47545E-2	8.08111E-2	1.52186E+2
1.06002E+1	1.29739E-2	8.10869E+1	5.91093E-2	7.49966E-2	1.61723E+2
1.08001E+1	1.37362E-2	8.58513E+1	5.79937E-2	7.58629E-2	1.71161E+2
1.10002E+1	1.49486E-2	9.34287E+1	5.48945E-2	7.35294E-2	1.79581E+2
1.12002E+1	1.59528E-2	9.97050E+1	5.34761E-2	7.19403E-2	1.90087E+2
1.14003E+1	1.69994E-2	1.06246E+2	5.13376E-2	7.05531E-2	1.97932E+2
1.16002E+1	1.80501E-2	1.12813E+2	5.05730E-2	7.08563E-2	2.10666E+2
1.18002E+1	1.92760E-2	1.20475E+2	4.80346E-2	6.95893E-2	2.17365E+2
1.18715E+1	2.00012E-2	1.25008E+2	4.68709E-2	6.89462E-2	2.21409E+2
