Voltage(V)	Current(A)	J(mA/cm2)	PE(lm/W)	EQE(%)	L(cd/m2)
-9.99971E-1	-1.68488E-6	-1.05305E-2	-5.07674E+0	1.49248E+1	-1.70165E-1
-7.99991E-1	-1.16258E-6	-7.26612E-3	-1.18729E+1	1.12272E+1	-2.19682E-1
-5.99966E-1	-7.54808E-7	-4.71755E-3	-2.98459E+1	-1.31789E+1	-2.68892E-1
-3.99954E-1	-4.98387E-7	-3.11492E-3	-6.12241E+1	2.65662E+1	-2.42789E-1
-2.00003E-1	-2.43437E-7	-1.52148E-3	3.81875E+2	2.13840E+0	3.69892E-1
4.99964E-5	6.64735E-10	4.15459E-6	-6.06046E+8	1.76239E+4	-4.00703E-1
2.00035E-1	2.53950E-7	1.58719E-3	-2.16977E+2	3.12656E+1	-2.19279E-1
3.99983E-1	5.86486E-7	3.66554E-3	-3.04425E+1	2.98868E+1	-1.42072E-1
5.99977E-1	1.04655E-6	6.54094E-3	-2.11562E+1	1.20977E+1	-2.64279E-1
7.99992E-1	1.63216E-6	1.02010E-2	-2.69600E+1	-7.42379E+0	-7.00322E-1
9.99998E-1	2.31973E-6	1.44983E-2	-8.61068E+0	-1.50453E+0	-3.97378E-1
1.20000E+0	3.03171E-6	1.89482E-2	-1.00717E+1	3.93018E-2	-7.28955E-1
1.40000E+0	3.79073E-6	2.36921E-2	-2.91661E+0	4.54816E+0	-3.07935E-1
1.60001E+0	4.32525E-6	2.70328E-2	-1.11038E+0	1.34183E+0	-1.52874E-1
1.79999E+0	4.50152E-6	2.81345E-2	-3.84046E+0	-1.23688E+0	-6.19075E-1
1.99998E+0	4.82308E-6	3.01442E-2	2.18010E-1	-2.90001E+0	4.18367E-2
2.20003E+0	6.54012E-6	4.08758E-2	-3.23841E+0	-1.35478E-1	-9.26994E-1
2.39994E+0	8.52574E-6	5.32859E-2	-1.88618E+0	-2.05496E+0	-7.67795E-1
2.59994E+0	1.13439E-5	7.08994E-2	-5.33654E-1	2.52912E-1	-3.13123E-1
2.79992E+0	1.53296E-5	9.58100E-2	-1.99355E-2	5.27843E-2	-1.70229E-2
2.99982E+0	2.23875E-5	1.39922E-1	4.70042E-1	-3.57463E-1	6.28011E-1
3.19992E+0	3.20192E-5	2.00120E-1	1.06500E+0	3.38549E-1	2.17085E+0
3.39986E+0	4.91629E-5	3.07268E-1	1.31043E+0	3.57856E-1	4.35754E+0
3.59983E+0	7.39251E-5	4.62032E-1	1.30955E+0	7.59735E-1	6.93306E+0
3.79985E+0	1.10042E-4	6.87763E-1	1.36528E+0	6.03888E-1	1.13573E+1
3.99980E+0	1.61267E-4	1.00792E+0	1.25041E+0	6.32547E-1	1.60459E+1
4.19976E+0	2.27589E-4	1.42243E+0	1.22020E+0	6.04141E-1	2.32026E+1
4.39979E+0	3.17307E-4	1.98317E+0	1.09782E+0	5.39872E-1	3.04911E+1
4.59975E+0	4.31507E-4	2.69692E+0	1.03615E+0	4.85129E-1	4.09142E+1
4.80015E+0	5.71727E-4	3.57329E+0	9.62978E-1	5.09037E-1	5.25763E+1
5.00006E+0	7.35835E-4	4.59897E+0	9.25496E-1	5.03726E-1	6.77424E+1
5.20004E+0	9.11029E-4	5.69393E+0	8.87478E-1	4.99366E-1	8.36425E+1
5.40007E+0	1.14740E-3	7.17125E+0	8.37874E-1	5.04894E-1	1.03282E+2
5.60005E+0	1.42862E-3	8.92887E+0	7.74099E-1	4.89758E-1	1.23207E+2
5.80015E+0	1.73051E-3	1.08157E+1	7.36204E-1	4.81424E-1	1.47008E+2
6.00008E+0	2.07643E-3	1.29777E+1	6.88326E-1	4.64568E-1	1.70608E+2
6.20011E+0	2.44958E-3	1.53099E+1	6.53047E-1	4.51020E-1	1.97318E+2
6.40007E+0	2.86156E-3	1.78848E+1	6.11175E-1	4.39735E-1	2.22681E+2
6.60004E+0	3.30883E-3	2.06802E+1	5.79785E-1	4.20402E-1	2.51894E+2
6.80003E+0	3.78641E-3	2.36651E+1	5.45661E-1	4.10517E-1	2.79506E+2
7.00003E+0	4.29787E-3	2.68617E+1	5.19673E-1	4.03735E-1	3.11038E+2
7.19997E+0	4.84732E-3	3.02957E+1	4.90142E-1	3.94705E-1	3.40318E+2
7.39996E+0	5.43070E-3	3.39419E+1	4.67296E-1	3.82763E-1	3.73600E+2
7.59998E+0	6.03036E-3	3.76897E+1	4.45555E-1	3.80420E-1	4.06244E+2
7.79995E+0	6.66775E-3	4.16734E+1	4.27095E-1	3.71704E-1	4.41902E+2
7.99993E+0	7.36115E-3	4.60072E+1	4.06366E-1	3.65068E-1	4.76079E+2
8.19989E+0	8.09336E-3	5.05835E+1	3.89503E-1	3.58368E-1	5.14254E+2
8.40000E+0	8.86718E-3	5.54199E+1	3.71077E-1	3.48315E-1	5.49868E+2
8.59991E+0	9.68543E-3	6.05339E+1	3.56246E-1	3.42741E-1	5.90327E+2
8.79994E+0	1.05522E-2	6.59512E+1	3.41153E-1	3.36702E-1	6.30234E+2
8.99999E+0	1.14529E-2	7.15806E+1	3.26611E-1	3.29589E-1	6.69759E+2
9.19994E+0	1.24007E-2	7.75044E+1	3.13799E-1	3.22763E-1	7.12218E+2
9.39995E+0	1.33983E-2	8.37394E+1	3.00405E-1	3.16290E-1	7.52685E+2
9.60019E+0	1.44457E-2	9.02856E+1	2.89719E-1	3.11604E-1	7.99330E+2
9.80017E+0	1.55513E-2	9.71956E+1	2.78203E-1	3.07198E-1	8.43513E+2
1.00001E+1	1.66953E-2	1.04346E+2	2.67248E-1	2.99000E-1	8.87653E+2
1.02001E+1	1.78911E-2	1.11819E+2	2.57272E-1	2.95226E-1	9.34038E+2
1.04001E+1	1.91258E-2	1.19536E+2	2.47062E-1	2.88907E-1	9.77671E+2
1.05252E+1	2.00002E-2	1.25001E+2	2.39766E-1	2.84039E-1	1.00411E+3
